# step pressure (kBar)
1 -278.758
2 -278.536
3 -278.217
4 -278.09
5 -277.067
6 -275.074
7 -273.684
8 -271.522
9 -268.59
10 -265.515
11 -261.754
12 -257.756
13 -253.423
14 -248.41
15 -242.872
16 -237.234
17 -230.879
18 -224.05
19 -216.706
20 -208.86
21 -200.575
22 -191.783
23 -182.368
24 -172.671
25 -162.42
26 -151.988
27 -141.644
28 -130.598
29 -119.129
30 -107.415
31 -95.5963
32 -84.051
33 -72.1003
34 -60.4737
35 -49.325
36 -38.1143
37 -27.48
38 -17.0507
39 -6.74033
40 3.41467
41 12.8403
42 21.424
43 29.395
44 37.37
45 44.4903
46 51.727
47 58.0247
48 63.425
49 68.541
50 73.674
51 78.8757
52 83.52
53 87.158
54 90.6577
55 94.6343
56 98.3387
57 101.266
58 103.971
59 107.126
60 110.155
61 113.016
62 115.886
63 118.726
64 121.503
65 124.572
66 127.195
67 130.255
68 132.723
69 135.66
70 138.73
71 142.167
72 145.574
73 148.644
74 151.739
75 154.997
76 158.358
77 161.86
78 164.994
79 167.832
80 171.039
81 174.141
82 177.283
83 180.12
84 182.952
85 185.689
86 188.437
87 190.879
88 192.649
89 193.87
90 195.176
91 196.187
92 196.998
93 197.221
94 197.105
95 196.551
96 195.7
97 194.368
98 192.381
99 190.02
100 187.164
101 183.751
102 180.318
103 176.159
104 171.706
105 166.789
106 161.493
107 155.936
108 150.443
109 144.81
110 138.599
111 133.307
112 127.353
113 121.241
114 115.357
115 109.971
116 104.616
117 99.1087
118 93.7847
119 88.1143
120 83.1463
121 78.1097
122 73.2863
123 68.8493
124 63.8317
125 59.1723
126 53.7997
127 49.256
128 45.325
129 42.18
130 35.2423
131 28.643
132 24.7293
133 18.8253
134 10.324
135 10.6143
136 6.04367
137 0.706667
138 -3.22567
139 -7.79633
140 -13.4533
141 -17.8583
142 -21.889
143 -26.3127
144 -30.6167
145 -34.752
146 -39.055
147 -42.3713
148 -46.6053
149 -50.3897
150 -54.645
151 -58.7057
152 -61.4833
153 -62.994
154 -63.8313
155 -64.4043
156 -68.9543
157 -73.904
158 -77.0203
159 -79.4797
160 -81.5523
161 -83.5997
162 -85.384
163 -87.1153
164 -90.36
165 -93.2103
166 -91.792
167 -94.1627
168 -96.7733
169 -97.908
170 -99.2457
171 -101.027
172 -102.406
173 -103.529
174 -104.756
175 -106.095
176 -106.947
177 -107.542
178 -109.711
179 -110.695
180 -112.779
181 -116.279
182 -119.711
183 -112.02
184 -112.62
185 -113.074
186 -113.287
187 -113.266
188 -112.931
189 -113.127
190 -112.869
191 -112.593
192 -112.138
193 -111.733
194 -111.552
195 -111.206
196 -110.526
197 -109.789
198 -109.337
199 -108.609
200 -107.917
201 -107.119
202 -106.267
203 -105.362
204 -104.129
205 -103.347
206 -102.124
207 -100.744
208 -99.646
209 -98.338
210 -97.113
211 -95.904
212 -94.7347
213 -93.6237
214 -92.369
215 -91.731
216 -90.5273
217 -89.4643
218 -88.5923
219 -87.545
220 -86.9713
221 -85.8203
222 -85.05
223 -84.0757
224 -82.914
225 -82.0107
226 -81.2653
227 -80.0743
228 -78.958
229 -77.6883
230 -76.1153
231 -74.8973
232 -73.641
233 -72.0033
234 -69.9397
235 -67.8797
236 -65.8367
237 -63.537
238 -60.9533
239 -57.8567
240 -54.563
241 -51.16
242 -47.949
243 -44.1387
244 -39.7637
245 -34.961
246 -30.25
247 -25.2393
248 -20.0213
249 -14.0797
250 -7.756
251 -1.46767
252 4.569
253 10.7083
254 17.5697
255 24.264
256 31.3243
257 37.836
258 44.6743
259 51.7233
260 58.8963
261 65.715
262 72.1
263 78.4767
264 84.9013
265 90.856
266 96.4977
267 101.905
268 107.32
269 112.693
270 117.311
271 122.059
272 126.092
273 129.786
274 133.012
275 136.733
276 139.975
277 142.523
278 145.127
279 147.447
280 149.916
281 152.102
282 154.291
283 156.152
284 157.498
285 158.7
286 160.135
287 161.603
288 162.753
289 163.474
290 164.486
291 165.13
292 165.878
293 166.197
294 166.199
295 165.781
296 165.464
297 165.03
298 164.382
299 163.133
300 161.678
301 159.655
302 157.119
303 154.672
304 151.6
305 148.359
306 144.724
307 140.491
308 135.963
309 131.263
310 126.842
311 121.488
312 115.981
313 110.569
314 105.091
315 99.788
316 94.287
317 88.8713
318 83.4827
319 78.106
320 72.3113
321 66.9697
322 61.7657
323 55.6837
324 52.4353
325 47.223
326 41.5177
327 37.37
328 33.7907
329 29.6817
330 26.4893
331 21.7817
332 17.2037
333 12.9307
334 9.37467
335 3.72867
336 1.66133
337 -2.46333
338 -6.09267
339 -9.47133
340 -13.1597
341 -17.1807
342 -20.2173
343 -23.5763
344 -26.7743
345 -30.1073
346 -33.5823
347 -36.4817
348 -39.1527
349 -37.8597
350 -38.5443
351 -50.564
352 -51.7537
353 -54.802
354 -58.0113
355 -61.0477
356 -63.644
357 -66.451
358 -69.27
359 -72.4543
360 -73.503
361 -78.343
362 -81.4003
363 -83.984
364 -86.7987
365 -90.093
366 -92.4943
367 -95.7787
368 -98.7037
369 -101.102
370 -103.92
371 -106.55
372 -108.728
373 -110.756
374 -112.738
375 -114.759
376 -116.494
377 -118.595
378 -120.083
379 -121.057
380 -121.91
381 -123.145
382 -124.275
383 -125.234
384 -125.555
385 -125.813
386 -126.171
387 -126.259
388 -125.811
389 -124.874
390 -123.302
391 -121.502
392 -121.425
393 -120.523
394 -119.264
395 -117.586
396 -115.699
397 -113.737
398 -111.237
399 -108.566
400 -105.79
401 -102.503
402 -99.3513
403 -96.2217
404 -92.4437
405 -88.9917
406 -85.176
407 -81.0883
408 -76.9577
409 -72.571
410 -68.426
411 -63.966
412 -59.3817
413 -55.052
414 -50.538
415 -46.4697
416 -42.182
417 -37.9717
418 -33.9553
419 -30.438
420 -27.0607
421 -23.754
422 -20.4913
423 -17.226
424 -14.2753
425 -11.639
426 -9.44867
427 -7.16333
428 -4.865
429 -3.23067
430 -1.09933
431 0.792667
432 2.28667
433 3.985
434 5.564
435 7.46367
436 9.02267
437 10.6927
438 12.101
439 13.7937
440 15.454
441 17.2497
442 19.295
443 20.8613
444 21.894
445 23.2173
446 24.7267
447 27.227
448 29.3997
449 30.5537
450 31.747
451 33.3983
452 34.969
453 36.7953
454 38.1863
455 39.5323
456 40.6797
457 42.0487
458 43.102
459 44.0333
460 45.1577
461 46.3603
462 47.686
463 48.7113
464 50.0553
465 50.933
466 52.258
467 53.63
468 55.0963
469 56.1557
470 57.585
471 58.9073
472 60.382
473 62.3237
474 64.3697
475 66.0233
476 67.6833
477 69.4427
478 71.3553
479 73.349
480 75.1317
481 76.989
482 79.1223
483 80.2177
484 81.5837
485 82.7193
486 83.309
487 83.7493
488 84.0077
489 83.5113
490 82.9473
491 82.019
492 80.5607
493 78.8247
494 76.888
495 74.692
496 72.1747
497 69.1027
498 66.2563
499 63.0047
500 59.7423
501 56.276
502 52.7987
503 49.1377
504 45.633
505 41.781
506 38.4957
507 35.5457
508 31.9033
509 28.6967
510 25.0673
511 22.701
512 20.522
513 18.4473
514 15.1053
515 12.7667
516 8.12033
517 9.884
518 10.53
519 8.83
520 8.27033
521 7.69833
522 7.73533
523 6.852
524 7.70567
525 8.042
526 8.19067
527 8.46167
528 7.813
529 9.23367
530 9.227
531 9.72233
532 9.89333
533 9.832
534 9.79833
535 9.61833
536 9.69
537 9.199
538 7.98067
539 7.856
540 6.24033
541 5.239
542 3.79167
543 2.78367
544 1.039
545 -0.789333
546 -3.32933
547 -5.36
548 -7.684
549 -9.667
550 -12.7493
551 -15.1527
552 -17.5463
553 -19.9923
554 -22.2697
555 -24.888
556 -27.573
557 -29.83
558 -31.8993
559 -33.8297
560 -35.9977
561 -38.1553
562 -40.305
563 -42.6853
564 -43.5543
565 -45.1063
566 -46.5513
567 -48.0173
568 -49.229
569 -50.2043
570 -51.371
571 -52.516
572 -53.5227
573 -54.565
574 -55.6863
575 -56.5923
576 -57.4337
577 -58.3643
578 -59.262
579 -60.055
580 -60.8537
581 -61.7373
582 -62.5913
583 -63.3987
584 -63.967
585 -64.6813
586 -65.323
587 -65.952
588 -66.6533
589 -66.999
590 -67.301
591 -67.6937
592 -67.6427
593 -67.6053
594 -67.4347
595 -66.9583
596 -66.147
597 -65.3073
598 -64.445
599 -63.2687
600 -61.7183
601 -60.3477
602 -58.4837
603 -56.399
604 -54.4883
605 -52.4497
606 -50.7837
607 -48.7257
608 -46.5563
609 -44.4217
610 -42.329
611 -40.4307
612 -37.8673
613 -35.5393
614 -33.4167
615 -31.2897
616 -29.092
617 -27.2517
618 -25.1963
619 -23.5187
620 -21.7367
621 -19.9923
622 -18.0463
623 -16.0273
624 -13.9367
625 -12.0043
626 -10.1263
627 -7.833
628 -5.48433
629 -2.952
630 -0.273
631 1.92067
632 4.383
633 6.89667
634 9.91567
635 12.6803
636 15.5057
637 18.6397
638 21.4367
639 24.5043
640 28.0397
641 31.186
642 34.4683
643 37.966
644 41.3153
645 44.6683
646 47.7237
647 50.646
648 53.5713
649 56.5397
650 59.4493
651 62.122
652 64.5893
653 67.087
654 69.2207
655 71.5693
656 73.8133
657 75.6533
658 77.11
659 78.4697
660 79.8147
661 80.626
662 81.1753
663 81.739
664 81.8497
665 81.7693
666 81.8263
667 81.5117
668 81.089
669 80.3323
670 78.9363
671 78.1787
672 76.6777
673 75.3293
674 73.7933
675 71.6893
676 69.4293
677 67.3477
678 64.7967
679 61.8087
680 60.335
681 58.4107
682 55.869
683 52.6123
684 50.144
685 47.8837
686 45.3973
687 42.7037
688 40.174
689 37.755
690 35.609
691 33.5277
692 31.1823
693 29.1073
694 26.9227
695 24.935
696 23.2587
697 21.3173
698 20.1363
699 18.6003
700 16.8753
701 15.5047
702 14.2143
703 12.034
704 10.6527
705 9.365
706 8.04433
707 6.38367
708 4.692
709 3.178
710 2.54767
711 1.238
712 -1.21733
713 -2.719
714 -3.78867
715 -5.25333
716 -6.88567
717 -8.463
718 -9.87467
719 -11.0707
720 -12.456
721 -13.6023
722 -14.7477
723 -15.5543
724 -16.4527
725 -17.2473
726 -17.2843
727 -17.9233
728 -18.817
729 -19.7257
730 -20.26
731 -20.3743
732 -20.8357
733 -21.2163
734 -22.2133
735 -23.455
736 -24.4127
737 -24.9437
738 -25.7733
739 -26.2277
740 -26.541
741 -26.4763
742 -25.6963
743 -24.8303
744 -23.765
745 -23.0343
746 -30.458
747 -30.8663
748 -32.039
749 -33.7127
750 -33.217
751 -34.1843
752 -34.6153
753 -34.955
754 -35.445
755 -35.9237
756 -36.185
757 -36.4907
758 -36.6417
759 -37.0813
760 -37.3333
761 -37.7487
762 -37.741
763 -37.8203
764 -37.4767
765 -37.352
766 -37.366
767 -37.2223
768 -36.8897
769 -36.3317
770 -36.0973
771 -35.6593
772 -35.442
773 -35.0387
774 -34.3757
775 -33.8387
776 -33.286
777 -32.9107
778 -32.3817
779 -31.9553
780 -31.5963
781 -31.2827
782 -30.8863
783 -30.8463
784 -30.7127
785 -30.3643
786 -30.482
787 -30.7297
788 -30.9743
789 -30.997
790 -31.1903
791 -31.5387
792 -32.0713
793 -32.595
794 -33.1183
795 -33.8037
796 -34.2473
797 -34.646
798 -34.932
799 -35.317
800 -35.0787
801 -34.9683
802 -34.9193
803 -34.24
804 -33.4773
805 -32.717
806 -31.728
807 -30.6503
808 -28.779
809 -27.2623
810 -25.476
811 -23.3763
812 -21.1253
813 -18.8023
814 -16.0677
815 -13.5023
816 -11.0203
817 -8.37133
818 -5.90167
819 -3.49967
820 -1.13033
821 1.18433
822 3.40667
823 5.73333
824 7.79567
825 9.774
826 11.537
827 12.7987
828 14.1947
829 15.3263
830 16.6187
831 17.297
832 18.049
833 18.7543
834 19.5367
835 20.2993
836 21.313
837 22.1347
838 22.7973
839 23.4213
840 24.2543
841 25.5597
842 26.9073
843 28.4707
844 30.5993
845 32.768
846 34.7593
847 36.9247
848 39.006
849 41.554
850 44.1663
851 46.872
852 49.673
853 52.18
854 54.8027
855 57.047
856 59.0677
857 61.1383
858 62.7397
859 64.0467
860 65.4907
861 66.835
862 67.785
863 68.4963
864 68.965
865 69.319
866 69.4017
867 69.2753
868 69.3253
869 69.348
870 68.9777
871 68.4203
872 67.8947
873 67.3947
874 66.215
875 65.188
876 64.453
877 63.5633
878 62.418
879 61.386
880 60.08
881 59.0597
882 58.032
883 56.72
884 55.4423
885 53.9373
886 52.685
887 51.191
888 50.0403
889 48.5253
890 47.2567
891 45.0523
892 44.042
893 42.5387
894 40.7333
895 38.7593
896 36.844
897 35.2893
898 33.8277
899 31.1513
900 28.8223
901 26.711
902 24.3033
903 22.0653
904 20.0507
905 19.6327
906 18.396
907 18.4093
908 19.1853
909 20.3207
910 22.6253
911 26.2
912 6.318
913 4.74067
914 2.58433
915 1.166
916 -0.439
917 -1.75167
918 -3.36833
919 -5.34967
920 -6.966
921 -8.85033
922 -10.943
923 -12.8027
924 -14.498
925 -17.6047
926 -19.8913
927 -22.1
928 -25.2763
929 -27.912
930 -31.1427
931 -33.831
932 -36.3133
933 -39.2393
934 -41.8997
935 -45.1663
936 -47.8143
937 -49.653
938 -49.6607
939 -54.6637
940 -57.458
941 -58.4577
942 -59.6993
943 -60.9603
944 -62.7633
945 -63.9527
946 -64.7083
947 -65.9607
948 -66.35
949 -66.7583
950 -66.9917
951 -66.9073
952 -66.8743
953 -66.908
954 -66.6977
955 -65.832
956 -65.1157
957 -64.1293
958 -63.2
959 -61.9733
960 -61.068
961 -59.7473
962 -58.5257
963 -57.5653
964 -56.2553
965 -54.7173
966 -53.4187
967 -51.8
968 -50.009
969 -48.3793
970 -46.739
971 -45.0473
972 -43.4157
973 -41.7767
974 -39.913
975 -38.206
976 -36.3937
977 -34.5113
978 -32.7923
979 -31.097
980 -29.2817
981 -27.4963
982 -25.8803
983 -24.3483
984 -22.237
985 -20.853
986 -19.2307
987 -17.6093
988 -15.967
989 -14.3783
990 -12.874
991 -11.5637
992 -10.0917
993 -8.591
994 -7.18367
995 -5.796
996 -4.598
997 -2.678
998 -1.78367
999 -0.232667
1000 1.08167
1001 2.17267
1002 3.493
1003 4.68533
1004 5.73333
1005 6.86667
1006 8.07033
1007 9.16167
1008 10.0797
1009 10.9023
1010 11.9577
1011 12.686
1012 13.325
1013 14.0687
1014 14.5503
1015 14.6543
1016 14.8617
1017 14.5133
1018 14.096
1019 13.6313
1020 13.2413
1021 12.555
1022 11.6383
1023 10.3767
1024 9.14333
1025 8.38167
1026 7.719
1027 7.085
1028 6.37467
1029 5.53433
1030 5.027
1031 5.16633
1032 5.279
1033 5.15233
1034 5.64733
1035 6.641
1036 7.37233
1037 8.257
1038 9.46033
1039 10.8873
1040 12.79
1041 14.265
1042 16.16
1043 18.103
1044 19.9427
1045 21.823
1046 24.1503
1047 26.133
1048 27.822
1049 29.2287
1050 30.68
1051 31.692
1052 32.7807
1053 34.169
1054 35.1543
1055 35.8083
1056 36.3407
1057 36.613
1058 36.99
1059 37.3933
1060 37.533
1061 37.749
1062 37.804
1063 37.6733
1064 37.736
1065 38.03
1066 38.1687
1067 38.2593
1068 38.3663
1069 38.194
1070 38.374
1071 38.6247
1072 38.6627
1073 38.8877
1074 38.72
1075 38.626
1076 38.9483
1077 38.557
1078 37.829
1079 37.403
1080 36.7157
1081 35.6017
1082 34.4783
1083 33.6593
1084 31.9043
1085 30.3863
1086 29.232
1087 27.23
1088 25.451
1089 23.345
1090 21.3383
1091 19.4147
1092 17.2037
1093 15.0803
1094 12.705
1095 10.2967
1096 8
1097 6.43767
1098 4.12333
1099 2.46067
1100 0.0446667
1101 -1.78933
1102 -3.42033
1103 -5.15333
1104 -6.951
1105 -8.46633
1106 -9.93633
1107 -10.8737
1108 -12.017
1109 -12.3623
1110 -10.519
1111 -13.5547
1112 -13.7093
1113 -14.2037
1114 -14.1457
1115 -16.272
1116 -16.932
1117 -18.003
1118 -18.7257
1119 -18.8727
1120 -19.1217
1121 -19.9
1122 -20.4433
1123 -20.9887
1124 -21.1673
1125 -21.368
1126 -21.3577
1127 -21.3827
1128 -21.1903
1129 -21.235
1130 -21.161
1131 -21.1083
1132 -20.9223
1133 -20.5777
1134 -20.3293
1135 -19.4843
1136 -18.856
1137 -18.1537
1138 -17.3247
1139 -16.059
1140 -14.8447
1141 -13.4107
1142 -11.615
1143 -10.115
1144 -8.50667
1145 -6.86333
1146 -5.33
1147 -3.814
1148 -2.03567
1149 -0.0696667
1150 1.91067
1151 3.59033
1152 5.037
1153 6.49
1154 7.85533
1155 8.867
1156 10.4
1157 11.306
1158 12.1157
1159 12.8053
1160 13.5303
1161 13.9927
1162 14.3287
1163 14.886
1164 15.0027
1165 15.257
1166 15.3623
1167 15.3163
1168 15.0283
1169 14.5553
1170 14.1747
1171 13.558
1172 12.9543
1173 12.171
1174 11.5593
1175 10.708
1176 10.0977
1177 9.19867
1178 8.501
1179 7.978
1180 7.20967
1181 6.49033
1182 5.602
1183 4.59167
1184 4.06
1185 3.40767
1186 2.885
1187 2.477
1188 2.245
1189 1.35467
1190 0.719333
1191 0.392667
1192 -0.229333
1193 -0.801
1194 -0.965
1195 -1.46933
1196 -2.15667
1197 -2.516
1198 -3.33933
1199 -3.641
1200 -4.69
1201 -5.29867
1202 -5.95867
1203 -7.02633
1204 -7.87333
1205 -8.9
1206 -10.168
1207 -11.4283
1208 -12.6787
1209 -13.589
1210 -15.086
1211 -15.9137
1212 -17.0507
1213 -18.69
1214 -20.0227
1215 -21.517
1216 -22.6577
1217 -23.3453
1218 -25.075
1219 -26.4133
1220 -27.4447
1221 -28.57
1222 -29.592
1223 -30.284
1224 -31.7517
1225 -32.9023
1226 -33.9583
1227 -34.8067
1228 -35.996
1229 -36.974
1230 -37.8713
1231 -38.86
1232 -39.6087
1233 -40.4497
1234 -41.1763
1235 -41.972
1236 -42.4
1237 -43.1327
1238 -43.4473
1239 -43.9203
1240 -44.492
1241 -44.8057
1242 -44.932
1243 -45.266
1244 -45.564
1245 -45.6553
1246 -45.6897
1247 -45.7337
1248 -45.8483
1249 -45.679
1250 -45.4917
1251 -45.058
1252 -44.5083
1253 -43.9653
1254 -43.5923
1255 -42.763
1256 -41.9377
1257 -41.006
1258 -39.7657
1259 -38.5343
1260 -37.637
1261 -36.2427
1262 -34.9347
1263 -33.3887
1264 -31.7113
1265 -29.8073
1266 -28.0263
1267 -26.2827
1268 -24.6277
1269 -22.992
1270 -21.387
1271 -19.6773
1272 -18.2113
1273 -16.4557
1274 -15.68
1275 -14.7527
1276 -13.9423
1277 -13.104
1278 -12.4633
1279 -11.66
1280 -11.2907
1281 -11.1707
1282 -10.946
1283 -10.7733
1284 -10.8327
1285 -10.6193
1286 -10.7473
1287 -10.9943
1288 -10.274
1289 -9.67133
1290 -9.36967
1291 -8.58167
1292 -7.97167
1293 -7.841
1294 -6.704
1295 -5.787
1296 -4.56667
1297 -3.524
1298 -1.992
1299 -0.46
1300 1.34067
1301 3.21767
1302 5.07567
1303 7.293
1304 9.164
1305 11.4173
1306 13.4617
1307 15.6187
1308 17.874
1309 20.299
1310 22.6333
1311 24.734
1312 26.555
1313 28.7877
1314 31.1053
1315 33.1193
1316 35.1947
1317 37.1073
1318 38.9197
1319 40.5037
1320 42.0757
1321 43.434
1322 44.6237
1323 45.8267
1324 47.1313
1325 48.188
1326 48.5603
1327 49.1577
1328 49.7123
1329 50.2187
1330 50.6797
1331 51.109
1332 51.16
1333 51.2453
1334 50.8443
1335 50.4967
1336 49.9953
1337 49.4543
1338 49.0997
1339 48.961
1340 48.2133
1341 47.7467
1342 47.2283
1343 46.8103
1344 46.2893
1345 45.7323
1346 45.2383
1347 45.2357
1348 44.759
1349 44.169
1350 43.6313
1351 42.9747
1352 42.6737
1353 42.561
1354 42.1553
1355 41.4577
1356 40.7957
1357 40.2173
1358 39.645
1359 38.7423
1360 37.4097
1361 36.6747
1362 35.216
1363 34.231
1364 32.663
1365 31.3133
1366 29.6923
1367 27.9437
1368 26.1213
1369 23.7927
1370 21.7497
1371 18.5817
1372 17.655
1373 15.4157
1374 12.7837
1375 10.0123
1376 7.327
1377 5.12
1378 2.414
1379 0.097
1380 -2.75233
1381 -5.11633
1382 -7.842
1383 -10.6317
1384 -12.856
1385 -15.5563
1386 -17.9757
1387 -20.006
1388 -22.1623
1389 -24.4523
1390 -26.5177
1391 -28.5593
1392 -30.2607
1393 -32.05
1394 -33.8533
1395 -35.2937
1396 -36.9883
1397 -38.2417
1398 -39.339
1399 -41.0487
1400 -42.413
1401 -43.925
1402 -45.1913
1403 -46.335
1404 -47.522
1405 -48.5977
1406 -49.0393
1407 -49.5783
1408 -50.8697
1409 -51.639
1410 -52.6303
1411 -53.7337
1412 -54.797
1413 -55.904
1414 -56.669
1415 -57.4163
1416 -58.116
1417 -59.021
1418 -59.6577
1419 -60.17
1420 -60.952
1421 -61.4367
1422 -62.391
1423 -62.636
1424 -62.7523
1425 -62.8933
1426 -63.0107
1427 -62.7013
1428 -62.5353
1429 -62.1077
1430 -61.3743
1431 -61.1313
1432 -60.6417
1433 -59.8373
1434 -59.0353
1435 -57.9513
1436 -57.2513
1437 -56.3077
1438 -55.2143
1439 -54.1377
1440 -52.724
1441 -51.38
1442 -50.1257
1443 -48.6357
1444 -47.4493
1445 -45.9167
1446 -44.8857
1447 -43.586
1448 -42.4133
1449 -40.9167
1450 -39.8273
1451 -39.235
1452 -38.226
1453 -37.4423
1454 -36.4833
1455 -35.641
1456 -34.943
1457 -34.629
1458 -34.3207
1459 -33.97
1460 -33.657
1461 -32.753
1462 -32.262
1463 -31.9427
1464 -31.3583
1465 -30.9503
1466 -30.637
1467 -30.0523
1468 -29.747
1469 -29.4593
1470 -29.0583
1471 -28.3257
1472 -27.5287
1473 -26.5827
1474 -26.186
1475 -25.0267
1476 -24.0107
1477 -22.7687
1478 -21.6963
1479 -20.3753
1480 -19.3963
1481 -17.9723
1482 -16.8513
1483 -15.5803
1484 -13.9493
1485 -12.1533
1486 -10.6287
1487 -9.00067
1488 -7.682
1489 -5.76567
1490 -3.86867
1491 -2.126
1492 -0.308667
1493 1.80667
1494 3.87267
1495 6.10067
1496 8.513
1497 10.6703
1498 13.1383
1499 15.78
1500 18.392
1501 21.3193
1502 23.9817
1503 26.689
1504 29.8007
1505 32.4713
1506 35.1413
1507 38.398
1508 41.3743
1509 44.192
1510 46.7297
1511 49.5693
1512 52.4043
1513 54.5827
1514 56.7877
1515 58.7503
1516 60.6833
1517 62.453
1518 64.1697
1519 65.298
1520 66.1623
1521 66.7337
1522 66.956
1523 66.828
1524 66.4783
1525 65.7347
1526 64.2843
1527 63.1337
1528 62.04
1529 60.592
1530 58.528
1531 56.243
1532 54.264
1533 52.0187
1534 49.9563
1535 47.46
1536 45.333
1537 43.1263
1538 40.715
1539 38.4547
1540 36.2377
1541 33.8917
1542 31.452
1543 28.808
1544 26.2913
1545 23.527
1546 20.9793
1547 18.28
1548 15.3223
1549 12.72
1550 10.116
1551 7.398
1552 4.79533
1553 2.445
1554 -0.0603333
1555 -2.05733
1556 -3.46733
1557 -4.67333
1558 -5.93733
1559 -6.93567
1560 -7.211
1561 -6.98267
1562 -6.48833
1563 -5.722
1564 -4.97633
1565 -3.90033
1566 -2.39767
1567 -0.786333
1568 0.820667
1569 2.68633
1570 4.50767
1571 6.13633
1572 7.909
1573 9.66867
1574 10.8903
1575 11.8887
1576 12.3437
1577 12.7777
1578 13.026
1579 13.3013
1580 12.895
1581 12.5493
1582 11.1563
1583 9.83333
1584 8.25033
1585 6.158
1586 3.85433
1587 1.74267
1588 -1.307
1589 -3.855
1590 -6.98267
1591 -9.97933
1592 -13.0547
1593 -16.0607
1594 -19.131
1595 -22.2723
1596 -25.0363
1597 -27.9937
1598 -30.7997
1599 -32.887
1600 -35.199
1601 -37.5983
1602 -39.5357
1603 -41.3383
1604 -43.1267
1605 -44.7687
1606 -46.1683
1607 -47.358
