# step pressure (kBar)
1 -265.989
2 -264.922
3 -264.077
4 -262.402
5 -260.249
6 -258.301
7 -255.855
8 -252.705
9 -249.181
10 -245.417
11 -241.098
12 -236.096
13 -231.019
14 -225.457
15 -219.582
16 -213.25
17 -206.132
18 -198.864
19 -190.781
20 -182.376
21 -173.23
22 -163.944
23 -154.052
24 -143.843
25 -133.085
26 -122.022
27 -110.613
28 -99.093
29 -87.1567
30 -75.0013
31 -62.374
32 -49.5567
33 -36.6507
34 -23.698
35 -10.7333
36 1.73
37 14.6227
38 27.7337
39 40.8517
40 53.4323
41 65.1217
42 76.5477
43 88.0683
44 100.086
45 111.211
46 121.126
47 130.863
48 140.328
49 150.112
50 159.283
51 167.431
52 175.146
53 182.674
54 189.846
55 197.005
56 203.268
57 208.762
58 214.008
59 218.768
60 223.694
61 227.533
62 230.999
63 234.013
64 237.056
65 239.922
66 241.903
67 243.313
68 244.519
69 246.144
70 247.183
71 247.754
72 247.393
73 246.634
74 245.911
75 245.425
76 244.71
77 242.585
78 240.608
79 238.862
80 235.95
81 233.277
82 230.413
83 227.842
84 225.012
85 220.825
86 218.545
87 211.723
88 207.771
89 204.344
90 201.34
91 192.454
92 185.761
93 180.052
94 174.01
95 167.503
96 160.781
97 154.088
98 147.454
99 140.005
100 134.327
101 124.584
102 112.047
103 108.326
104 100.304
105 92.221
106 83.9573
107 75.593
108 66.9
109 59.803
110 50.73
111 43.223
112 33.902
113 25.9423
114 17.925
115 10.974
116 3.13133
117 -1.11933
118 -16.329
119 -17.9633
120 -24.807
121 -31.824
122 -37.923
123 -43.7077
124 -49.119
125 -55.0553
126 -60.4327
127 -65.5893
128 -70.078
129 -74.5743
130 -78.478
131 -82.5557
132 -86.1457
133 -89.0233
134 -91.8633
135 -94.6493
136 -97.2797
137 -100.113
138 -101.787
139 -103.878
140 -105.077
141 -105.976
142 -110.816
143 -110.995
144 -112.7
145 -113.944
146 -113.368
147 -114.605
148 -116.222
149 -116.565
150 -117.139
151 -117.911
152 -117.935
153 -116.743
154 -117.308
155 -117.583
156 -117.097
157 -116.815
158 -117.463
159 -117.092
160 -116.207
161 -115.785
162 -115.129
163 -113.637
164 -113.564
165 -113.052
166 -112.779
167 -111.82
168 -110.71
169 -109.502
170 -108.397
171 -107.009
172 -106.072
173 -104.635
174 -103.475
175 -101.947
176 -100.462
177 -98.6773
178 -96.961
179 -95.1713
180 -93.4563
181 -91.2543
182 -88.958
183 -86.651
184 -84.511
185 -82.2793
186 -79.836
187 -77.709
188 -75.5387
189 -73.1977
190 -70.5797
191 -68.0503
192 -65.5177
193 -62.6957
194 -59.801
195 -57.0313
196 -54.0703
197 -51.3007
198 -48.277
199 -45.1007
200 -42.2267
201 -39.9673
202 -37.459
203 -34.3283
204 -31.1543
205 -28.582
206 -26.1787
207 -23.9697
208 -20.8697
209 -17.835
210 -14.606
211 -11.97
212 -9.78567
213 -7.919
214 -5.28267
215 -1.94
216 1.43867
217 4.362
218 6.45867
219 9.26867
220 12.44
221 16.1893
222 19.4267
223 22.6533
224 25.862
225 29.819
226 34.245
227 38.591
228 42.305
229 46.188
230 50.8673
231 55.7067
232 60.634
233 65.061
234 69.4987
235 73.7823
236 78.4453
237 83.2563
238 87.756
239 91.0057
240 93.787
241 96.907
242 100.246
243 103.878
244 106.514
245 108.389
246 109.649
247 111.022
248 112.576
249 114.076
250 115.17
251 114.949
252 114.469
253 113.824
254 113.477
255 112.701
256 111.861
257 110.643
258 109.122
259 107.444
260 105.631
261 103.518
262 101.533
263 99.6687
264 97.5583
265 95.586
266 93.751
267 91.768
268 89.3693
269 87.303
270 85.464
271 83.869
272 82.398
273 80.348
274 78.2057
275 76.2803
276 74.6323
277 73.4927
278 72.3107
279 71.2203
280 69.8897
281 68.63
282 68.8123
283 67.7263
284 66.624
285 65.654
286 64.7617
287 65.5363
288 63.7707
289 62.6343
290 61.914
291 60.7507
292 59.8323
293 58.1493
294 56.5927
295 55.2243
296 53.823
297 51.9763
298 49.3303
299 46.9673
300 45.1383
301 42.8447
302 39.9647
303 37.065
304 33.8253
305 30.6737
306 27.126
307 23.6187
308 20.0777
309 16.6197
310 12.7303
311 8.59933
312 4.64833
313 0.716667
314 -3.15167
315 -5.97667
316 -10.446
317 -14.8917
318 -18.983
319 -23.253
320 -26.548
321 -29.8217
322 -33.6303
323 -37.697
324 -41.605
325 -45.4283
326 -48.3933
327 -51.6983
328 -54.6163
329 -57.4853
330 -60.039
331 -62.7987
332 -65.283
333 -67.5493
334 -69.9013
335 -72.0363
336 -73.9367
337 -75.691
338 -77.3867
339 -78.9933
340 -80.4417
341 -81.484
342 -82.1557
343 -82.843
344 -83.6137
345 -84.454
346 -85.0523
347 -85.7767
348 -85.7347
349 -85.4113
350 -85.3987
351 -85.4807
352 -85.473
353 -85.485
354 -84.883
355 -84.2403
356 -83.865
357 -83.4453
358 -83.1047
359 -82.5123
360 -81.968
361 -80.9667
362 -80.2083
363 -79.7307
364 -78.9263
365 -77.9793
366 -77.271
367 -76.826
368 -75.8997
369 -75.077
370 -74.1747
371 -72.9943
372 -71.9877
373 -71.0007
374 -69.5863
375 -68.1973
376 -66.9143
377 -65.3593
378 -63.7053
379 -61.9283
380 -60.5123
381 -58.506
382 -56.0447
383 -54.2337
384 -51.8873
385 -49.7733
386 -47.18
387 -44.9537
388 -42.3053
389 -39.6693
390 -36.879
391 -33.9863
392 -31.4303
393 -28.8067
394 -26.1867
395 -23.357
396 -20.5827
397 -18.0517
398 -15.5427
399 -12.6667
400 -10.0647
401 -7.367
402 -4.638
403 -2.005
404 0.839667
405 3.55333
406 6.891
407 9.77367
408 12.726
409 15.46
410 18.117
411 21.096
412 24.1797
413 26.9283
414 29.921
415 32.626
416 35.609
417 39.3333
418 42.0637
419 44.978
420 47.6883
421 50.88
422 53.7933
423 56.9087
424 59.976
425 62.826
426 65.4503
427 68.347
428 70.9877
429 73.5967
430 75.689
431 77.5793
432 79.6807
433 81.7267
434 83.4937
435 85.2857
436 86.5313
437 87.417
438 88.072
439 88.572
440 88.552
441 88.5787
442 88.2963
443 87.6377
444 86.6967
445 85.987
446 84.46
447 82.9417
448 81.2627
449 79.3073
450 76.9323
451 74.81
452 72.258
453 69.657
454 66.4333
455 63.2543
456 60.271
457 56.501
458 52.387
459 49.998
460 49.162
461 42.4567
462 37.7383
463 34.0723
464 30.9697
465 27.389
466 22.3937
467 17.8963
468 16.0383
469 12.1483
470 8.175
471 5.19767
472 2.482
473 -1.426
474 -4.11333
475 -7.08833
476 -9.56433
477 -15.924
478 -15.144
479 -18.517
480 -22.5237
481 -21.8387
482 -24.244
483 -26.1103
484 -27.7333
485 -30.07
486 -31.674
487 -34.263
488 -35.1767
489 -36.241
490 -37.7557
491 -37.8273
492 -38.4277
493 -39.5813
494 -41.3317
495 -42.2437
496 -42.412
497 -43.3157
498 -42.855
499 -44.1883
500 -44.8493
501 -45.2153
502 -45.8313
503 -46.2317
504 -46.6
505 -47.1323
506 -47.359
507 -47.683
508 -47.5907
509 -47.7453
510 -47.9003
511 -48.9167
512 -50.3283
513 -48.7187
514 -48.666
515 -49.1813
516 -49.5477
517 -49.6363
518 -50.3983
519 -50.4983
520 -50.528
521 -51.394
522 -52.651
523 -52.5363
524 -52.154
525 -52.2943
526 -52.7937
527 -53.0647
528 -53.661
529 -53.7197
530 -54.216
531 -54.406
532 -54.684
533 -54.9733
534 -55.0593
535 -55.337
536 -55.1347
537 -54.486
538 -56.0477
539 -56.045
540 -56.5787
541 -57.173
542 -57.5667
543 -57.5903
544 -57.6863
545 -57.7093
546 -57.7227
547 -57.5343
548 -57.2387
549 -56.7663
550 -56.5893
551 -56.4657
552 -56.4863
553 -56.1923
554 -56.3643
555 -56.1517
556 -55.6127
557 -55.068
558 -54.447
559 -54.1593
560 -54.3063
561 -54.2127
562 -53.926
563 -53.8837
564 -53.153
565 -52.7657
566 -51.7963
567 -51.1877
568 -51.2917
569 -50.38
570 -50.0087
571 -48.5027
572 -47.9583
573 -46.7263
574 -45.5817
575 -44.1583
576 -43.5543
577 -40.1507
578 -39.839
579 -37.8947
580 -35.4223
581 -33.1387
582 -30.647
583 -28.1607
584 -25.1603
585 -22.9423
586 -19.8343
587 -16.4987
588 -13.605
589 -10.0487
590 -6.65267
591 -2.82333
592 0.387
593 4.699
594 8.02133
595 12.0647
596 16.1177
597 20.514
598 24.7187
599 28.582
600 31.923
601 36.5593
602 41.4683
603 45.616
604 49.9237
605 53.5753
606 57.216
607 60.8443
608 63.8543
609 67.5537
610 70.9523
611 74.038
612 77.198
613 80.0247
614 82.7703
615 85.2137
616 87.8957
617 89.745
618 92.28
619 93.5583
620 94.6557
621 95.6577
622 98.509
623 99.9543
624 100.836
625 101.707
626 102.792
627 103.746
628 104.08
629 104.712
630 104.951
631 104.864
632 105.161
633 105.373
634 105.211
635 104.979
636 104.472
637 103.278
638 103.741
639 102.292
640 101.042
641 99.45
642 97.6653
643 96.286
644 93.311
645 90.8513
646 88.686
647 85.848
648 81.4247
649 78.8313
650 75.4247
651 71.4513
652 67.7747
653 63.359
654 58.7667
655 54.0903
656 50.5583
657 45.2147
658 40.322
659 35.73
660 31.5523
661 27.1187
662 22.429
663 17.663
664 13.6497
665 10.3197
666 6.182
667 1.42767
668 -3.837
669 -7.6
670 -11.667
671 -15.2777
672 -19.0143
673 -22.2693
674 -25.6753
675 -29.1673
676 -31.9643
677 -34.4473
678 -37.1577
679 -39.707
680 -42.4447
681 -44.7757
682 -46.1613
683 -45.7377
684 -48.8653
685 -50.2427
686 -50.9403
687 -51.6657
688 -51.8337
689 -51.911
690 -51.1973
691 -50.206
692 -51.3487
693 -50.488
694 -49.6477
695 -48.402
696 -47.8667
697 -46.628
698 -44.5563
699 -43.6363
700 -43.053
701 -42.0043
702 -40.2353
703 -38.7773
704 -38.3317
705 -35.8503
706 -34.7
707 -35.3393
708 -33.925
709 -33.266
710 -32.567
711 -32.986
712 -32.158
713 -32.109
714 -32.0037
715 -31.0757
716 -32.2183
717 -31.776
718 -32.5707
719 -32.46
720 -32.8607
721 -33.3103
722 -33.5183
723 -33.5343
724 -33.5977
725 -34.633
726 -34.6797
727 -34.9
728 -34.741
729 -34.3223
730 -34.1483
731 -34.0647
732 -33.609
733 -33.167
734 -31.9727
735 -31.349
736 -30.6657
737 -29.9947
738 -29.0123
739 -27.696
740 -26.641
741 -25.6873
742 -24.86
743 -24.0277
744 -23.334
745 -22.8437
746 -22.0833
747 -21.3817
748 -20.446
749 -20.0427
750 -19.9143
751 -19.4917
752 -19.2343
753 -18.773
754 -18.7803
755 -18.4093
756 -17.9957
757 -17.8467
758 -17.5783
759 -17.7777
760 -17.5343
761 -17.714
762 -17.6663
763 -17.258
764 -17.2267
765 -17.04
766 -16.5897
767 -16.1597
768 -15.887
769 -15.388
770 -14.8563
771 -13.8877
772 -12.6383
773 -11.409
774 -10.1717
775 -8.62467
776 -7.289
777 -5.996
778 -4.36433
779 -3.052
780 -1.52433
781 0.230667
782 1.92767
783 3.76967
784 5.82233
785 7.548
786 9.52133
787 11.407
788 13.0917
789 15.2073
790 17.0613
791 18.77
792 21.1407
793 23.029
794 24.5093
795 26.3837
796 27.8867
797 29.458
798 30.876
799 32.2277
800 33.331
801 34.597
802 35.766
803 36.815
804 37.7957
805 38.531
806 39.2583
807 40.1327
808 40.506
809 40.5697
810 40.673
811 40.7917
812 40.9353
813 40.9047
814 40.6087
815 40.516
816 40.598
817 40.1817
818 39.4443
819 39.3327
820 39.0257
821 38.7647
822 38.714
823 38.79
824 38.9007
825 38.5553
826 38.555
827 38.682
828 38.8023
829 38.9857
830 39.3643
831 39.5653
832 40.1003
833 40.3777
834 40.6263
835 41.1957
836 41.9083
837 42.2613
838 42.7263
839 43.0293
840 43.3053
841 43.646
842 44.2373
843 44.3417
844 44.4073
845 44.5273
846 44.3503
847 44.27
848 43.8963
849 44.026
850 51.371
851 50.6517
852 50.1483
853 49.4213
854 48.28
855 47.108
856 45.8513
857 44.265
858 42.74
859 40.5573
860 38.283
861 35.958
862 33.592
863 31.0717
864 28.2773
865 25.5373
866 22.5327
867 19.4563
868 16.195
869 12.734
870 9.50067
871 6.13733
872 2.707
873 -0.815667
874 -4.18767
875 -7.91867
876 -11.684
877 -14.9373
878 -18.6473
879 -22.228
880 -26.166
881 -28.9533
882 -31.4353
883 -34.0217
884 -37.7037
885 -41.0817
886 -44.2943
887 -46.813
888 -48.2817
889 -49.623
890 -51.7797
891 -54.3447
892 -56.605
893 -57.7327
894 -58.202
895 -58.5753
896 -59.8527
897 -60.859
898 -61.0527
899 -61.2377
900 -61.0777
901 -60.6187
902 -59.8557
903 -59.0753
904 -58.2713
905 -57.6217
906 -56.6443
907 -55.5713
908 -54.5617
909 -53.7213
910 -52.4093
911 -51.6647
912 -50.45
913 -49.5033
914 -48.531
915 -47.3587
916 -46.6143
917 -46.1063
918 -45.775
919 -45.4327
920 -44.983
921 -45.025
922 -44.7187
923 -45.0773
924 -45.2503
925 -45.097
926 -44.9247
927 -44.8277
928 -45.2887
929 -45.5437
930 -45.6303
931 -45.474
932 -45.2157
933 -44.801
934 -44.372
935 -43.8153
936 -42.9007
937 -41.8987
938 -40.808
939 -39.3483
940 -37.83
941 -36.2417
942 -34.2027
943 -32.334
944 -30.177
945 -27.7623
946 -25.0283
947 -22.1443
948 -19.3247
949 -16.468
950 -13.6207
951 -10.6577
952 -7.42667
953 -3.816
954 -0.245667
955 3.07367
956 6.24233
957 9.41033
958 12.933
959 16.2187
960 19.6263
961 22.793
962 25.4813
963 28.5563
964 31.4423
965 34.0357
966 36.7627
967 38.818
968 40.8027
969 42.783
970 44.479
971 45.7397
972 46.7487
973 47.7363
974 48.4453
975 48.9963
976 49.3873
977 49.4543
978 49.071
979 48.4107
980 47.7497
981 46.7327
982 45.3533
983 43.6963
984 41.9817
985 39.6933
986 37.5763
987 35.1427
988 32.8457
989 30.4097
990 27.619
991 25.0257
992 22.2163
993 19.4873
994 16.718
995 13.5083
996 10.8103
997 7.917
998 5.05267
999 2.43333
1000 0.556
1001 -1.48067
1002 -3.98067
1003 -5.55967
1004 -7.257
1005 -9.26033
1006 -10.6453
1007 -12.2153
1008 -13.499
1009 -15.136
1010 -16.704
1011 -17.3207
1012 -17.865
1013 -18.5083
1014 -19.4793
1015 -20.647
1016 -21.335
1017 -21.5097
1018 -21.7263
1019 -22.406
1020 -22.609
1021 -22.8213
1022 -22.7833
1023 -21.943
1024 -23.7283
1025 -23.1337
1026 -23.1997
1027 -23.1423
1028 -23.2403
1029 -23.1187
1030 -22.867
1031 -23.0587
1032 -22.5593
1033 -22.3623
1034 -22.4753
1035 -22.0923
1036 -21.7693
1037 -21.5467
1038 -21.4823
1039 -21.3873
1040 -21.4497
1041 -21.2777
1042 -21.4843
1043 -21.6027
1044 -21.7863
1045 -22.155
1046 -22.4283
1047 -22.874
1048 -23.6577
1049 -23.9587
1050 -24.8013
1051 -25.758
1052 -26.4623
1053 -26.8527
1054 -27.8297
1055 -28.477
1056 -28.847
1057 -29.214
1058 -29.5123
1059 -29.863
1060 -29.757
1061 -29.6957
1062 -29.5953
1063 -29.4413
1064 -29.076
1065 -28.043
1066 -27.2167
1067 -26.0917
1068 -25.0273
1069 -23.8407
1070 -22.2153
1071 -20.35
1072 -18.6533
1073 -16.6547
1074 -14.544
1075 -12.5597
1076 -10.432
1077 -8.155
1078 -6.10133
1079 -4.32167
1080 -2.06933
1081 -0.221
1082 1.55367
1083 3.69867
1084 5.40233
1085 7.18067
1086 8.80033
1087 10.6503
1088 12.463
1089 13.8093
1090 15.1193
1091 16.188
1092 17.2843
1093 18.3697
1094 19.4577
1095 20.4823
1096 21.574
1097 22.3283
1098 22.7053
1099 23.1257
1100 24.224
1101 25.036
1102 25.9383
1103 26.5543
1104 27.2673
1105 28.192
1106 29.239
1107 30.277
1108 31.0283
1109 31.7877
1110 32.693
1111 32.8837
1112 33.516
1113 34.316
1114 34.7427
1115 35.083
1116 35.249
1117 35.431
1118 35.6013
1119 35.652
1120 35.415
1121 35.5527
1122 35.3253
1123 35.4663
1124 35.1583
1125 34.7197
1126 34.6707
1127 34.2383
1128 34.0097
1129 33.7927
1130 33.4167
1131 33.494
1132 33.3767
1133 33.0443
1134 33.181
1135 33.3537
1136 33.5163
1137 33.2717
1138 33.404
1139 33.2677
1140 33.4047
1141 33.5
1142 33.5873
1143 33.468
1144 33.7313
1145 33.9067
1146 34.2543
1147 34.6933
1148 35.3177
1149 35.8057
1150 36.5213
1151 36.494
1152 37.371
1153 38.0593
1154 38.556
1155 38.346
1156 38.121
1157 39.6073
1158 40.3417
1159 40.691
1160 40.4443
1161 40.571
1162 40.1993
1163 40.519
1164 40.317
1165 39.832
1166 39.6227
1167 37.8363
1168 36.6493
1169 35.5717
1170 33.9697
1171 32.7133
1172 31.3687
1173 29.4447
1174 27.0677
1175 25.4607
1176 22.5303
1177 20.1823
1178 17.6583
1179 14.9763
1180 12.4183
1181 9.17267
1182 5.993
1183 3.001
1184 -0.239
1185 -3.744
1186 -7.00733
1187 -10.1307
1188 -12.969
1189 -15.6683
1190 -17.935
1191 -20.6023
1192 -23.8957
1193 -28.7207
1194 -35.459
1195 -41.0173
1196 -44.0093
1197 -47.6147
1198 -51.5963
1199 -55.503
1200 -59.1333
1201 -63.0543
1202 -66.2873
1203 -69.6783
1204 -72.7563
1205 -75.812
1206 -78.5177
1207 -81.2477
1208 -83.6663
1209 -86.0023
1210 -88.122
1211 -90.002
1212 -91.037
1213 -92.1943
1214 -93.31
1215 -94.215
1216 -95.114
1217 -95.618
1218 -95.64
1219 -95.7717
1220 -95.679
1221 -95.1293
1222 -94.957
1223 -94.349
1224 -93.7013
1225 -92.87
1226 -92.0283
1227 -91.3357
1228 -90.7733
1229 -89.9367
1230 -89.1957
1231 -88.2117
1232 -87.382
1233 -86.5843
1234 -85.9847
1235 -85.486
1236 -85.1383
1237 -84.8117
1238 -84.7933
1239 -81.47
1240 -80.652
1241 -80.7393
1242 -80.3257
1243 -79.4193
1244 -78.5087
1245 -77.919
1246 -77.068
1247 -76.126
1248 -74.7973
1249 -73.6077
1250 -72.1437
1251 -70.427
1252 -68.409
1253 -66.48
1254 -64.716
1255 -62.3667
1256 -60.151
1257 -57.6177
1258 -55.192
1259 -52.3763
1260 -49.5787
1261 -46.0933
1262 -42.9223
1263 -39.655
1264 -35.8643
1265 -32.2113
1266 -28.486
1267 -24.6277
1268 -20.6233
1269 -16.2307
1270 -12.044
1271 -7.70833
1272 -3.61567
1273 1.04833
1274 5.627
1275 9.546
1276 14.032
1277 18.252
1278 22.776
1279 27.291
1280 32.1237
1281 36.8263
1282 40.7833
1283 43.912
1284 47.4957
1285 52.6087
1286 56.738
1287 60.3317
1288 63.8517
1289 68.1017
1290 71.9913
1291 75.5587
1292 78.7267
1293 82.4927
1294 86.039
1295 89.663
1296 93.037
1297 96.2673
1298 99.713
1299 102.959
1300 106
1301 109.387
1302 112.986
1303 115.957
1304 118.648
1305 121.304
1306 124.327
1307 127.003
1308 129.16
1309 131.165
1310 133.234
1311 134.967
1312 136.213
1313 137.36
1314 138.351
1315 139.064
1316 139.192
1317 139.13
1318 138.442
1319 137.639
1320 136.891
1321 136.072
1322 135.279
1323 133.766
1324 132.035
1325 129.861
1326 128.232
1327 125.849
1328 123.442
1329 120.976
1330 118.096
1331 115.556
1332 112.944
1333 110.102
1334 107.191
1335 104.828
1336 101.514
1337 98.4007
1338 94.5977
1339 90.834
1340 88.7473
1341 85.477
1342 82.0613
1343 78.8847
1344 75.8657
1345 71.9143
1346 68.8793
1347 65.649
1348 62.546
1349 60.2357
1350 57.4977
1351 54.922
1352 51.0073
1353 47.2847
1354 45.0797
1355 42.292
1356 39.388
1357 36.0037
1358 32.85
1359 29.9203
1360 26.3463
1361 23.2627
1362 20.0347
1363 16.736
1364 13.4433
1365 10.0133
1366 6.782
1367 3.249
1368 -0.241333
1369 -3.47367
1370 -6.80933
1371 -10.8833
1372 -15.1577
1373 -19.5347
1374 -23.137
1375 -26.7977
1376 -30.5267
1377 -34.7293
1378 -39.1187
1379 -43.433
1380 -48.132
1381 -50.6917
1382 -55.4627
1383 -58.783
1384 -62.4763
1385 -65.7333
1386 -70.8407
1387 -73.607
1388 -76.0097
1389 -79.5767
1390 -82.05
1391 -84.9083
1392 -87.4607
1393 -89.7177
1394 -92.555
1395 -95.3417
1396 -97.3887
1397 -98.9573
1398 -100.915
1399 -102.354
1400 -103.735
1401 -104.476
1402 -106.116
1403 -106.805
1404 -107.75
1405 -107.809
1406 -107.86
1407 -106.64
1408 -107.613
1409 -107.26
1410 -106.47
1411 -105.61
1412 -104.531
1413 -102.879
1414 -101.498
1415 -99.92
1416 -97.8073
1417 -95.61
1418 -93.2193
1419 -91.013
1420 -88.588
1421 -85.9723
1422 -83.0103
1423 -80.304
1424 -77.108
1425 -74.0093
1426 -70.7357
1427 -67.6897
1428 -64.9957
1429 -61.9043
1430 -59.0437
1431 -56.1373
1432 -53.562
1433 -51.2637
1434 -48.5683
1435 -46.465
1436 -44.19
1437 -42.318
1438 -40.5993
1439 -38.9007
1440 -37.395
1441 -35.97
1442 -34.657
1443 -33.0803
1444 -32.564
1445 -31.5607
1446 -30.863
1447 -29.956
1448 -28.873
1449 -27.9983
1450 -27.4653
1451 -26.461
1452 -25.843
1453 -24.66
1454 -23.5973
1455 -22.5713
1456 -21.3357
1457 -19.8993
1458 -18.4153
1459 -16.7927
1460 -14.909
1461 -13.1977
1462 -10.883
1463 -8.77433
1464 -6.43233
1465 -4.04833
1466 -1.75033
1467 0.483
1468 3.12867
1469 5.75233
1470 8.12367
1471 10.7783
1472 13.2097
1473 15.7393
1474 18.7
1475 21.38
1476 24.4037
1477 27.1223
1478 29.707
1479 31.9243
1480 34.5783
1481 37.4253
1482 40.0813
1483 41.8417
1484 43.4823
1485 45.8733
1486 47.9767
1487 49.49
1488 50.7563
1489 52.2117
1490 53.468
1491 54.67
1492 55.7043
1493 56.5043
1494 57.166
1495 57.3887
1496 57.5557
1497 57.8743
1498 57.9857
1499 58.012
1500 57.5057
1501 57.3543
1502 57.3597
1503 57.2503
1504 57.183
1505 56.883
1506 57.0767
1507 56.9863
1508 56.978
1509 57.4773
1510 57.719
1511 57.8627
1512 58.091
1513 58.199
1514 58.775
1515 59.5197
1516 60.0587
1517 60.7903
1518 61.421
1519 62.0667
1520 62.7097
1521 63.3183
1522 63.6683
1523 64.1147
1524 64.3867
1525 64.6367
1526 64.5697
1527 64.1967
1528 63.556
1529 62.732
1530 61.3347
1531 59.9443
1532 58.0307
1533 55.125
1534 53.166
1535 50.8773
1536 48.4083
1537 44.8167
1538 42.078
1539 39.079
1540 35.594
1541 32.3397
1542 28.8027
1543 24.8157
1544 20.9433
1545 17.607
1546 14.5337
1547 11.664
1548 8.56567
1549 5.53067
1550 2.799
1551 0.181667
1552 -2.241
1553 -4.724
1554 -7.17467
1555 -8.463
1556 -11.8
1557 -14.339
1558 -16.3667
1559 -18.7467
1560 -20.242
1561 -21.7867
1562 -23.9123
1563 -26.015
1564 -27.9967
1565 -29.9893
1566 -32.524
1567 -34.6607
1568 -36.2263
1569 -38.427
1570 -40.392
1571 -41.7847
1572 -43.662
1573 -45.5443
1574 -48.026
1575 -49.7557
1576 -51.455
1577 -53.354
1578 -54.9433
1579 -56.6937
1580 -58.6917
1581 -60.0953
1582 -61.4717
1583 -62.9427
1584 -64.2397
1585 -65.4453
1586 -66.585
1587 -68.0147
1588 -68.875
1589 -69.6597
1590 -69.2607
1591 -70.4673
1592 -71.1583
1593 -71.646
1594 -72.3487
1595 -72.979
1596 -73.9097
1597 -74.408
1598 -74.51
1599 -74.6117
1600 -75.1313
1601 -75.0863
